nu (cm^-1),absorbance
4.383033521000000292e+03,1.095058930334466413e-01
4.383034521000000495e+03,1.103382844396429696e-01
4.383035521000000699e+03,1.111798591680204229e-01
4.383036520999999993e+03,1.120311145370611050e-01
4.383037521000000197e+03,1.128915171431585096e-01
4.383038521000000401e+03,1.137616029972951248e-01
4.383039521000000605e+03,1.146415540704005670e-01
4.383040520999999899e+03,1.155315584239846316e-01
4.383041521000000103e+03,1.164318089419034558e-01
4.383042521000000306e+03,1.173413459649137319e-01
4.383043521000000510e+03,1.182626252128227279e-01
4.383044521000000714e+03,1.191947518179863330e-01
4.383045521000000008e+03,1.201380864282596411e-01
4.383046521000000212e+03,1.210925202581335514e-01
4.383047521000000415e+03,1.220584112074957067e-01
4.383048521000000619e+03,1.230359569450264617e-01
4.383049520999999913e+03,1.240253490284726201e-01
4.383050521000000117e+03,1.250267705524812367e-01
4.383051521000000321e+03,1.260403935275637155e-01
4.383052521000000525e+03,1.270663762394558249e-01
4.383053521000000728e+03,1.281048591365130662e-01
4.383054521000000022e+03,1.291559628701803297e-01
4.383055521000000226e+03,1.302197836452727575e-01
4.383056521000000430e+03,1.312963895403354841e-01
4.383057521000000634e+03,1.323865263459439445e-01
4.383058520999999928e+03,1.334887738590915807e-01
4.383059521000000132e+03,1.346037994442515207e-01
4.383060521000000335e+03,1.357315151779225904e-01
4.383061521000000539e+03,1.368717823902469433e-01
4.383062521000000743e+03,1.380244120035707400e-01
4.383063521000000037e+03,1.391907895624371616e-01
4.383064521000000241e+03,1.403672982008159209e-01
4.383065521000000444e+03,1.415551977222276880e-01
4.383066521000000648e+03,1.427540177624017914e-01
4.383067520999999942e+03,1.439632113913334732e-01
4.383068521000000146e+03,1.451821446639547653e-01
4.383069521000000350e+03,1.464100933301391294e-01
4.383070521000000554e+03,1.476462383609202234e-01
4.383071520999999848e+03,1.488896617136035716e-01
4.383072521000000052e+03,1.501393773797533027e-01
4.383073521000000255e+03,1.513941887902178207e-01
4.383074521000000459e+03,1.526528918382009659e-01
4.383075521000000663e+03,1.539141377516718423e-01
4.383076520999999957e+03,1.551764622418331241e-01
4.383077521000000161e+03,1.564382848520633751e-01
4.383078521000000364e+03,1.576979080734101091e-01
4.383079521000000568e+03,1.589535172411401520e-01
4.383080520999999862e+03,1.602031812800616128e-01
4.383081521000000066e+03,1.614449337389769479e-01
4.383082521000000270e+03,1.626764582382677349e-01
4.383083521000000474e+03,1.638956333655074704e-01
4.383084521000000677e+03,1.650999596833541694e-01
4.383085520999999972e+03,1.662870366653243226e-01
4.383086521000000175e+03,1.674543097637899713e-01
4.383087521000000379e+03,1.685991440780638950e-01
4.383088521000000583e+03,1.697188363971997016e-01
4.383089520999999877e+03,1.708106250282006300e-01
4.383090521000000081e+03,1.718717177128458173e-01
4.383091521000000284e+03,1.728993024930328970e-01
4.383092521000000488e+03,1.738904583886966559e-01
4.383093521000000692e+03,1.748423910626545896e-01
4.383094520999999986e+03,1.757522873610240233e-01
4.383095521000000190e+03,1.766173842922290349e-01
4.383096521000000394e+03,1.774349710829932758e-01
4.383097521000000597e+03,1.782024398624485750e-01
4.383098520999999892e+03,1.789172884083227166e-01
4.383099521000000095e+03,1.795771214678074934e-01
4.383100521000000299e+03,1.801797756677247786e-01
4.383101521000000503e+03,1.807231885236715851e-01
4.383102521000000706e+03,1.812055198139450318e-01
4.383103521000000001e+03,1.816251463531464716e-01
4.383104521000000204e+03,1.819806800385686818e-01
4.383105521000000408e+03,1.822709840226524047e-01
4.383106521000000612e+03,1.824951867120077620e-01
4.383107520999999906e+03,1.826526933108198747e-01
4.383108521000000110e+03,1.827431946748171443e-01
4.383109521000000314e+03,1.827666732830097729e-01
4.383110521000000517e+03,1.827234061923826702e-01
4.383111521000000721e+03,1.826139648133337789e-01
4.383112521000000015e+03,1.824392119621225661e-01
4.383113521000000219e+03,1.822002950482456973e-01
4.383114521000000423e+03,1.818986370684998743e-01
4.383115521000000626e+03,1.815359336662736300e-01
4.383116520999999921e+03,1.811141013204845551e-01
4.383117521000000124e+03,1.806353158624761091e-01
4.383118521000000328e+03,1.801019562972883126e-01
4.383119521000000532e+03,1.795165932302816014e-01
4.383120521000000736e+03,1.788819666766115202e-01
4.383121521000000030e+03,1.782009628817638469e-01
4.383122521000000233e+03,1.774766160231340262e-01
4.383123521000000437e+03,1.767119502955507293e-01
4.383124521000000641e+03,1.759102354136880264e-01
4.383125520999999935e+03,1.750746731293900682e-01
4.383126521000000139e+03,1.742085239227452176e-01
4.383127521000000343e+03,1.733150546040986562e-01
4.383128521000000546e+03,1.723975179383357981e-01
4.383129520999999841e+03,1.714591328644956558e-01
4.383130521000000044e+03,1.705030677215713941e-01
4.383131521000000248e+03,1.695324241576224855e-01
4.383132521000000452e+03,1.685502228867379049e-01
4.383133521000000655e+03,1.675594393599484644e-01
4.383134520999999950e+03,1.665627991361817717e-01
4.383135521000000153e+03,1.655630638451062453e-01
4.383136521000000357e+03,1.645628257395896632e-01
4.383137521000000561e+03,1.635645523978110361e-01
4.383138520999999855e+03,1.625705829179777684e-01
4.383139521000000059e+03,1.615831261746995817e-01
4.383140521000000263e+03,1.606042572038159921e-01
4.383141521000000466e+03,1.596359211494407515e-01
4.383142521000000670e+03,1.586799350341623061e-01
4.383143520999999964e+03,1.577379778373124986e-01
4.383144521000000168e+03,1.568116123804283168e-01
4.383145521000000372e+03,1.559022761572648186e-01
4.383146521000000575e+03,1.550112885993014944e-01
4.383147520999999870e+03,1.541398555931648706e-01
4.383148521000000073e+03,1.533014351626881266e-01
4.383149521000000277e+03,1.524723094751329056e-01
4.383150521000000481e+03,1.516658972114186821e-01
4.383151521000000685e+03,1.508826464561245639e-01
4.383152520999999979e+03,1.501234510827566537e-01
4.383153521000000183e+03,1.493900014729758474e-01
4.383154521000000386e+03,1.486806766659894696e-01
4.383155521000000590e+03,1.479970761159919712e-01
4.383156520999999884e+03,1.473396145083231690e-01
4.383157521000000088e+03,1.467086436033425145e-01
4.383158521000000292e+03,1.461044565710629684e-01
4.383159521000000495e+03,1.455272921882240778e-01
4.383160521000000699e+03,1.449773386650379525e-01
4.383161520999999993e+03,1.444547372013787745e-01
4.383162521000000197e+03,1.439596583036023281e-01
4.383163521000000401e+03,1.434920125595048335e-01
4.383164521000000605e+03,1.430518914260834606e-01
4.383165520999999899e+03,1.426392775259082701e-01
4.383166521000000103e+03,1.422541182087499745e-01
4.383167521000000306e+03,1.418963330309626070e-01
4.383168521000000510e+03,1.415658063962661750e-01
4.383169521000000714e+03,1.412623945196737618e-01
4.383170521000000008e+03,1.409859247266225246e-01
4.383171521000000212e+03,1.407361959961845599e-01
4.383172521000000415e+03,1.405129791410574258e-01
4.383173521000000619e+03,1.403160168224684146e-01
4.383174520999999913e+03,1.401450232804394569e-01
4.383175521000000117e+03,1.399996838526055276e-01
4.383176521000000321e+03,1.398796546364532711e-01
4.383177521000000525e+03,1.397845602693382483e-01
4.383178521000000728e+03,1.397139949898737465e-01
4.383179521000000022e+03,1.396675201406683831e-01
4.383180521000000226e+03,1.396447469163647481e-01
4.383181521000000430e+03,1.396450007499042689e-01
4.383182521000000634e+03,1.396678214252030092e-01
4.383183520999999928e+03,1.397122799244185365e-01
4.383184521000000132e+03,1.397784293498884056e-01
4.383185521000000335e+03,1.398652878583779013e-01
4.383186521000000539e+03,1.399721540348800308e-01
4.383187521000000743e+03,1.400982846644391322e-01
4.383188521000000037e+03,1.402428940604626972e-01
4.383189521000000241e+03,1.404051534940786161e-01
4.383190521000000444e+03,1.405841915232300399e-01
4.383191521000000648e+03,1.407790933508235032e-01
4.383192520999999942e+03,1.409889017661405120e-01
4.383193521000000146e+03,1.412126178184548442e-01
4.383194521000000350e+03,1.414492019929982913e-01
4.383195521000000554e+03,1.416975757929616608e-01
4.383196520999999848e+03,1.419567726580500122e-01
4.383197521000000052e+03,1.422253376573506811e-01
4.383198521000000255e+03,1.425022436871435927e-01
4.383199521000000459e+03,1.427862806952841512e-01
4.383200521000000663e+03,1.430762141963687895e-01
4.383201520999999957e+03,1.433707893396642952e-01
4.383202521000000161e+03,1.436687366500057350e-01
4.383203521000000364e+03,1.439687758371859527e-01
4.383204521000000568e+03,1.442696224201550359e-01
4.383205520999999862e+03,1.445699966339621390e-01
4.383206521000000066e+03,1.448686178137886804e-01
4.383207521000000270e+03,1.451642292430087022e-01
4.383208521000000474e+03,1.454555936308836173e-01
4.383209521000000677e+03,1.457415031820011031e-01
4.383210520999999972e+03,1.460207873087357167e-01
4.383211521000000175e+03,1.462923147764543241e-01
4.383212521000000379e+03,1.465550235530088674e-01
4.383213521000000583e+03,1.468078956042314365e-01
4.383214520999999877e+03,1.470499860844291518e-01
4.383215521000000081e+03,1.472804251903598038e-01
4.383216521000000284e+03,1.474984249679657800e-01
4.383217521000000488e+03,1.477032855959352631e-01
4.383218521000000692e+03,1.478944010196066305e-01
4.383219520999999986e+03,1.480712638149080107e-01
4.383220521000000190e+03,1.482334691664033421e-01
4.383221521000000394e+03,1.483807178486884482e-01
4.383222521000000597e+03,1.485128181176821605e-01
4.383223520999999892e+03,1.486296869783413355e-01
4.383224521000000095e+03,1.487313465416431058e-01
4.383225521000000299e+03,1.488179291858426900e-01
4.383226521000000503e+03,1.488896668139038371e-01
4.383227521000000706e+03,1.489468906114107538e-01
4.383228521000000001e+03,1.489900245004571189e-01
4.383229521000000204e+03,1.490195865294171307e-01
4.383230521000000408e+03,1.490361464844600636e-01
4.383231521000000612e+03,1.490417297209057357e-01
4.383232520999999906e+03,1.490343364445322893e-01
4.383233521000000110e+03,1.490161104383577184e-01
4.383234521000000314e+03,1.489878039073334604e-01
4.383235521000000517e+03,1.489502681423941488e-01
4.383236521000000721e+03,1.489043427471227754e-01
4.383237521000000015e+03,1.488508696241773177e-01
4.383238521000000219e+03,1.487906798918609830e-01
4.383239521000000423e+03,1.487245831102333715e-01
4.383240521000000626e+03,1.486533561064126707e-01
4.383241520999999921e+03,1.485777326174738955e-01
4.383242521000000124e+03,1.484983937392595210e-01
4.383243521000000328e+03,1.484159593202062921e-01
4.383244521000000532e+03,1.483309754524321511e-01
4.383245521000000736e+03,1.482439278253240011e-01
4.383246521000000030e+03,1.481552072791154917e-01
4.383247521000000233e+03,1.480651253649855059e-01
4.383248521000000437e+03,1.479739071339721268e-01
4.383249521000000641e+03,1.478816900979453564e-01
4.383250520999999935e+03,1.477885282676182355e-01
4.383251521000000139e+03,1.476944524884551690e-01
4.383252521000000343e+03,1.475992024020248983e-01
4.383253521000000546e+03,1.475026558117467079e-01
4.383254520999999841e+03,1.474045448866600494e-01
4.383255521000000044e+03,1.473045361365836192e-01
4.383256521000000248e+03,1.472058864000068690e-01
4.383257521000000452e+03,1.471008615953412202e-01
4.383258521000000655e+03,1.469928365375829937e-01
4.383259520999999950e+03,1.468808804140219748e-01
4.383260521000000153e+03,1.467646733059578545e-01
4.383261521000000357e+03,1.466436764168784213e-01
4.383262521000000561e+03,1.465173529012068487e-01
4.383263520999999855e+03,1.463851785254497995e-01
4.383264521000000059e+03,1.462466520468290732e-01
4.383265521000000263e+03,1.461013055406824301e-01
4.383266521000000466e+03,1.459487120507108049e-01
4.383267521000000670e+03,1.457885214438092158e-01
4.383268520999999964e+03,1.456203669107347942e-01
4.383269521000000168e+03,1.454440210085776175e-01
4.383270521000000372e+03,1.452593016835147521e-01
4.383271521000000575e+03,1.450661012732130661e-01
4.383272520999999870e+03,1.448643894013774969e-01
4.383273521000000073e+03,1.446551216511008098e-01
4.383274521000000277e+03,1.444402147548037030e-01
4.383275521000000481e+03,1.442164328866048506e-01
4.383276521000000685e+03,1.439819533772294935e-01
4.383277520999999979e+03,1.437400407972484750e-01
4.383278521000000183e+03,1.434910002751419444e-01
4.383279521000000386e+03,1.432353777419357599e-01
4.383280521000000590e+03,1.429737179779075051e-01
4.383281520999999884e+03,1.427066164927007497e-01
4.383282521000000088e+03,1.424346608439500395e-01
4.383283521000000292e+03,1.421586299331255299e-01
4.383284521000000495e+03,1.418791795384071741e-01
4.383285521000000699e+03,1.415999388075309118e-01
4.383286520999999993e+03,1.413158506642517021e-01
4.383287521000000197e+03,1.410305645050013157e-01
4.383288521000000401e+03,1.407448323834207815e-01
4.383289521000000605e+03,1.404594016136183898e-01
4.383290520999999899e+03,1.401750092516102220e-01
4.383291521000000103e+03,1.398923765540670550e-01
4.383292521000000306e+03,1.396122073119273332e-01
4.383293521000000510e+03,1.393351772498756247e-01
4.383294521000000714e+03,1.390619465575931024e-01
4.383295521000000008e+03,1.387931379019285427e-01
4.383296521000000212e+03,1.385293476471937957e-01
4.383297521000000415e+03,1.382711418057693264e-01
4.383298521000000619e+03,1.380190557246738503e-01
4.383299520999999913e+03,1.377734188846571894e-01
4.383300521000000117e+03,1.375351224230194624e-01
4.383301521000000321e+03,1.373043068006795375e-01
4.383302521000000525e+03,1.370850123954709676e-01
4.383303521000000728e+03,1.368705203304655393e-01
4.383304521000000022e+03,1.366647565168639944e-01
4.383305521000000226e+03,1.364680681130685524e-01
4.383306521000000430e+03,1.362808460797877153e-01
4.383307521000000634e+03,1.361032710770555543e-01
4.383308520999999928e+03,1.359356996800377693e-01
4.383309521000000132e+03,1.357784175489939738e-01
4.383310521000000335e+03,1.356316745120027811e-01
4.383311521000000539e+03,1.354957324797947116e-01
4.383312520999999833e+03,1.353708733674161002e-01
4.383313521000000037e+03,1.352572569290415305e-01
4.383314521000000241e+03,1.351552742917543626e-01
4.383315521000000444e+03,1.350648940714072599e-01
4.383316521000000648e+03,1.349865009508318670e-01
4.383317520999999942e+03,1.349201926236305304e-01
4.383318521000000146e+03,1.348662326273116774e-01
4.383319521000000350e+03,1.348248160549483932e-01
4.383320521000000554e+03,1.347961317669109094e-01
4.383321520999999848e+03,1.347803621214428704e-01
4.383322521000000052e+03,1.347776885591465967e-01
4.383323521000000255e+03,1.347882672718345720e-01
4.383324521000000459e+03,1.348122986729631823e-01
4.383325521000000663e+03,1.348498659779280018e-01
4.383326520999999957e+03,1.349011458735562830e-01
4.383327521000000161e+03,1.349662705795141582e-01
4.383328521000000364e+03,1.350453626790955874e-01
4.383329521000000568e+03,1.351385323060358135e-01
4.383330520999999862e+03,1.352458776958340159e-01
4.383331521000000066e+03,1.353674840273142999e-01
4.383332521000000270e+03,1.355034225745803400e-01
4.383333521000000474e+03,1.356537501986339322e-01
4.383334521000000677e+03,1.358185069860375349e-01
4.383335520999999972e+03,1.359977175001083338e-01
4.383336521000000175e+03,1.361913883683979476e-01
4.383337521000000379e+03,1.363995075551205638e-01
4.383338521000000583e+03,1.366220434107100201e-01
4.383339520999999877e+03,1.368589783866298315e-01
4.383340521000000081e+03,1.371101682983359715e-01
4.383341521000000284e+03,1.373755819079031937e-01
4.383342521000000488e+03,1.376550328566137904e-01
4.383343521000000692e+03,1.379484058710566396e-01
4.383344520999999986e+03,1.382555259232720046e-01
4.383345521000000190e+03,1.385760370934255303e-01
4.383346521000000394e+03,1.389100052216061809e-01
4.383347521000000597e+03,1.392570190043135037e-01
4.383348520999999892e+03,1.396167800945728454e-01
4.383349521000000095e+03,1.399889556690041836e-01
4.383350521000000299e+03,1.403731769871287560e-01
4.383351521000000503e+03,1.407690380310475109e-01
4.383352521000000706e+03,1.411760941361631105e-01
4.383353521000000001e+03,1.415938609265015302e-01
4.383354521000000204e+03,1.420218399189083491e-01
4.383355521000000408e+03,1.424594109003236853e-01
4.383356521000000612e+03,1.429060739990017925e-01
4.383357520999999906e+03,1.433610152905014368e-01
4.383358521000000110e+03,1.438236201637995704e-01
4.383359521000000314e+03,1.442931517686364407e-01
4.383360521000000517e+03,1.447688318850677280e-01
4.383361521000000721e+03,1.452498413494208995e-01
4.383362521000000015e+03,1.457353220415605333e-01
4.383363521000000219e+03,1.462243788068541550e-01
4.383364521000000423e+03,1.467160836749206720e-01
4.383365521000000626e+03,1.472094721411444929e-01
4.383366520999999921e+03,1.477035570667319664e-01
4.383367521000000124e+03,1.481973416223042739e-01
4.383368521000000328e+03,1.486897629808262844e-01
4.383369521000000532e+03,1.491797916494230769e-01
4.383370521000000736e+03,1.496663744736250190e-01
4.383371521000000030e+03,1.501484564965242796e-01
4.383372521000000233e+03,1.506249875491966206e-01
4.383373521000000437e+03,1.510949291791457150e-01
4.383374521000000641e+03,1.515572659508544473e-01
4.383375520999999935e+03,1.520109958693294239e-01
4.383376521000000139e+03,1.524551646671009619e-01
4.383377521000000343e+03,1.528888535326978215e-01
4.383378521000000546e+03,1.533111927429349486e-01
4.383379520999999841e+03,1.537213681990248770e-01
4.383380521000000044e+03,1.541188196960948664e-01
4.383381521000000248e+03,1.545024811272355247e-01
4.383382521000000452e+03,1.548719099609232874e-01
4.383383521000000655e+03,1.552266264430777476e-01
4.383384520999999950e+03,1.555661602604911931e-01
4.383385521000000153e+03,1.558901526013010963e-01
4.383386521000000357e+03,1.561983339172248464e-01
4.383387521000000561e+03,1.564905256945297585e-01
4.383388520999999855e+03,1.567666409124537086e-01
4.383389521000000059e+03,1.570266835577711073e-01
4.383390521000000263e+03,1.572707471356367404e-01
4.383391521000000466e+03,1.574990131241066904e-01
4.383392521000000670e+03,1.577117439128196130e-01
4.383393520999999964e+03,1.579092840347570692e-01
4.383394521000000168e+03,1.580920514413575173e-01
4.383395521000000372e+03,1.582657396984771536e-01
4.383396521000000575e+03,1.584204879347758943e-01
4.383397520999999870e+03,1.585621178424542754e-01
4.383398521000000073e+03,1.586912563550137711e-01
4.383399521000000277e+03,1.588086000047903568e-01
4.383400521000000481e+03,1.589148800270799577e-01
4.383401521000000685e+03,1.590108901619586290e-01
4.383402520999999979e+03,1.590973113815937201e-01
4.383403521000000183e+03,1.591749643993381480e-01
4.383404521000000386e+03,1.592446289486784405e-01
4.383405521000000590e+03,1.593070800498222472e-01
4.383406520999999884e+03,1.593630813094783216e-01
4.383407521000000088e+03,1.594133786390227736e-01
4.383408521000000292e+03,1.594587156442751341e-01
4.383409521000000495e+03,1.594997434857271246e-01
4.383410521000000699e+03,1.595371432853169569e-01
4.383411520999999993e+03,1.595715376162591681e-01
4.383412521000000197e+03,1.596035059163768421e-01
4.383413521000000401e+03,1.596335845611829007e-01
4.383414521000000605e+03,1.596622622174146133e-01
4.383415520999999899e+03,1.596899780496895405e-01
4.383416521000000103e+03,1.597171220852487139e-01
4.383417521000000306e+03,1.597440450781399124e-01
4.383418521000000510e+03,1.597710206890787521e-01
4.383419521000000714e+03,1.597982711944476997e-01
4.383420521000000008e+03,1.598259980784659529e-01
4.383421521000000212e+03,1.598543411739806186e-01
4.383422521000000415e+03,1.598833955897143166e-01
4.383423521000000619e+03,1.599132145039925401e-01
4.383424520999999913e+03,1.599438135966976815e-01
4.383425521000000117e+03,1.599751750655365734e-01
4.383426521000000321e+03,1.600072527047382565e-01
4.383427521000000525e+03,1.600399773932444092e-01
4.383428521000000728e+03,1.600732629266621854e-01
4.383429521000000022e+03,1.601070123323960759e-01
4.383430521000000226e+03,1.601411242532267687e-01
4.383431521000000430e+03,1.601754995088482125e-01
